time,Temperature,Heat flow,Heat,Normalized heat flow,Normalized heat,Time markers
0.0,-1.4257034935749933,-0.00012224532386423986,-7.17615424452731e-07,5.5112221398931344e-05,-1.391529014423358e-05,
1.0,-1.376540193902342,-3.705554123402587e-05,-1.9373054277988654e-07,4.8930911760329956e-05,2.9113959563828423e-07,
2.0,-1.296237006813312,2.2387420390056043e-05,1.975684623312398e-07,3.9473108555106025e-05,7.1528455910801745e-06,
3.0,-1.1881355515475822,5.92679870021402e-05,4.541888315125536e-07,2.7523415669569332e-05,8.308779496608993e-06,
4.0,-1.0555774473448325,7.677058459636089e-05,5.740378053959601e-07,1.3866436990029597e-05,5.397892966741642e-06,
5.0,-0.901904313444742,7.807963916685228e-05,5.55022624613364e-07,-7.132235972034376e-07,5.9137655995011194e-08,
6.0,-0.7304577690869909,6.637957670774879e-05,3.950505297966717e-07,-1.5430962205820012e-05,-6.0685347811139914e-06,
7.0,-0.5445794335112585,4.4854823213184565e-05,9.202876157778782e-08,-2.9502174949510394e-05,-1.1346172690068474e-05,
8.0,-0.3476109259572247,1.6689804677293902e-05,-3.561354394113822e-07,-4.214225794196485e-05,-1.4134824416351555e-05,
9.0,-0.14289386566456852,-1.4931052905788864e-05,-9.515348325389332e-07,-5.2566607296873594e-05,-1.2795538305446302e-05,
10.0,0.0662301281270297,-4.682332354192952e-05,-1.6962621771729598e-06,-5.9990619127926945e-05,-5.6893627028358366e-06,
11.0,0.2764281511109266,-7.58022483825812e-05,-2.5883929158187775e-06,-6.362989154818116e-05,8.79215505799756e-06,
12.0,0.4854218058777861,-9.864279319527928e-05,-3.139907150585554e-06,-6.272446459398665e-05,2.856709009567127e-05,
13.0,0.6929807042816373,-0.00011204170296061125,-1.918715520829599e-06,-5.6561848152719426e-05,4.438625534899627e-05,
14.0,0.8991097613684728,-0.00011268673559002589,2.615738889387787e-06,-4.4435006094639296e-05,4.617699108080576e-05,
15.0,1.1038138921842835,-9.726564899497195e-05,1.2004012996005302e-05,-2.5636902290006057e-05,2.3866637553932904e-05,
16.0,1.307098011775061,-6.246620108689825e-05,2.7786663714961634e-05,5.394993909204514e-07,-3.261746496878906e-05,
17.0,1.5089670351867968,-5.060654289982468e-06,2.9604322207261817e-05,3.4760975906182654e-05,-0.0001133910227079177,
18.0,1.7094258774654827,7.784071092068193e-05,-7.700739661432288e-05,7.753326752703174e-05,-0.00012874192781757302,
19.0,1.9084794536571088,0.00018904029718530923,-9.742213928060203e-05,0.0001293209794948437,3.096286219013138e-05,
20.0,2.1061326788076675,0.0003309712257554604,0.0005316439628269022,0.00019047524636816966,0.0004689449811402482,
21.0,2.30239046796315,0.0005044124046754706,0.002165813903124999,0.0002609690636366105,0.001232739756100376,
22.0,2.4972577361695483,0.0007086935040539888,0.004812078451156697,0.00034057946622171665,0.0023216881332980242,
23.0,2.6907393984728536,0.000943028543385957,0.00846155099928334,0.0004290759972016792,0.003733077934124799,
24.0,2.8828403699190566,0.001206631542166318,0.013105344939866275,0.0005262281996546894,0.005464196979972302,
25.0,3.073565565554149,0.0014987165198900138,0.01873457366526685,0.000631805616658938,0.007512333092232142,
26.0,3.2629199004241234,0.0018184974960519865,0.02534035056784641,0.0007455777912926165,0.00987477409229592,
27.0,3.4509082895749708,0.0021651884901471782,0.0329137890399663,0.0008673142666339159,0.012548807801555243,
28.0,3.6375356480526815,0.0025380035216705328,0.04144600247398786,0.0009967845857610275,0.015531722041401711,
29.0,3.822806890903246,0.002936156610116991,0.05092810426227245,0.001133758291752142,0.018820804633226933,
30.0,4.0067269331726605,0.003358861774981496,0.061351207797181395,0.001278004927685451,0.022413343398422512,
31.0,4.18930068990691,0.00380533303575899,0.07270642647107607,0.0014292940366391457,0.02630662615838006,
32.0,4.3705330761519905,0.004274784411944414,0.08498487367631778,0.0015873951616914169,0.030497940734491163,
33.0,4.550429006953894,0.004766429923032711,0.09817766280526792,0.001752077845920456,0.034984574948147454,
34.0,4.728993397358608,0.005279483588518825,0.11227590725028776,0.0019231116324044534,0.039763816620740494,
35.0,4.906231162412125,0.005813159427897698,0.12727072040373877,0.002100266064221602,0.044832953573661946,
36.0,5.08214721716044,0.006366671460664268,0.1431532156579822,0.0022833106844500906,0.05018927362830336,
37.0,5.256746476649542,0.006939233706313483,0.1599145064053794,0.0024720150361681125,0.055830064606056384,
38.0,5.430033855925421,0.007530060184340284,0.17754570603829176,0.0026661486624538575,0.0617526143283126,
39.0,5.602014270034069,0.00813836491423961,0.19603792794908056,0.0028654811063855167,0.06795421061646359,
40.0,5.77269263402148,0.008763361915506408,0.2153822855301072,0.003069781911041282,0.074432141291901,
41.0,5.9420738629336425,0.009404265207635619,0.2355698921737331,0.003278820619499345,0.08118369417601644,
42.0,6.110162871816549,0.01006028881012218,0.2565918612723193,0.0034923667748378937,0.08820615709020144,
43.0,6.276964575716191,0.01073064674246104,0.27843930621822766,0.0037101899201351252,0.09549681785584772,
44.0,6.442483889678561,0.01141455302414714,0.30110334040381903,0.003932059598469225,0.10305296429434678,
45.0,6.606725728749648,0.012111221674675418,0.32457507722145496,0.004157745352918386,0.11087188422709027,
46.0,6.769695007975445,0.012819866713540825,0.34884563006349684,0.0043870167265608,0.11895086547546979,
47.0,6.931396642401945,0.013539702160238292,0.373906112322306,0.004619643262474657,0.12728719586087697,
48.0,7.091835547075137,0.014269942034262769,0.39974763739024366,0.004855394503738149,0.13587816320470336,
49.0,7.251016637041012,0.015009800355109201,0.42636131865967136,0.005094039993429469,0.14472105532834065,
50.0,7.408944827345564,0.015758491142272523,0.4537382695229504,0.005335349274626805,0.15381316005318035,
51.0,7.565625033034781,0.016515228415247676,0.4818696033724419,0.005579091890408349,0.1631517652006141,
52.0,7.721062169154658,0.01727922619352961,0.5107464336005074,0.005825037383852292,0.1727341585920335,
53.0,7.875261150751186,0.018049698496613264,0.5403598735995081,0.006072955298036825,0.18255762804883013,
54.0,8.02822689287035,0.01882585934399358,0.570701036761806,0.006322615176040143,0.19261946139239577,
55.0,8.17996431055815,0.019606922755165502,0.6017610364797614,0.006573786560940431,0.20291694644412175,
56.0,8.330478318860575,0.02039210274962397,0.6335309861457362,0.006826238995815883,0.2134473710253998,
57.0,8.479773832823614,0.021180613346863927,0.6660019991520919,0.007079742023744691,0.2242080229576216,
58.0,8.627855767493262,0.021971668566380317,0.6991651888911896,0.007334065187805046,0.23519619006217873,
59.0,8.77472903791551,0.022764482427668077,0.7330116687553907,0.007588978031075137,0.24640916016046266,
60.0,8.920398559136343,0.023558268950222158,0.7675325521370564,0.007844250096633157,0.2578442210738651,
61.0,9.06486924620176,0.024352242153537495,0.8027189524285483,0.008099650927557297,0.26949866062377764,
62.0,9.20814601415775,0.025145616057109032,0.838561983022228,0.00835495006692575,0.28136976663159197,
63.0,9.350233778050304,0.025937604680431714,0.8750527573104558,0.0086099170578167,0.2934548269186995,
64.0,9.491137452925411,0.02672742204300048,0.9121823886855942,0.008864321443308346,0.305751129306492,
65.0,9.63086195382907,0.027514282164310275,0.9499419905400038,0.009117932766478876,0.31825596161636094,
66.0,9.769412195807263,0.02829739906385604,0.9883226762660464,0.009370520570406483,0.3309666116696981,
67.0,9.90679309390599,0.029075986761132714,1.027315559256083,0.009621854398169354,0.34388036728789495,
68.0,10.043009563171234,0.02984925927563524,1.0669117529024752,0.009871703792845684,0.35699451629234313,
69.0,10.178066518648995,0.030616430626858575,1.1071023705975844,0.010119838297513662,0.3703063465044342,
70.0,10.311968875385256,0.03137671483429764,1.1478785257337716,0.010366027455251479,0.38381314574555986,
71.0,10.444721548426015,0.03212932591744739,1.1892313317033985,0.010610040809137331,0.3975122018371118,
72.0,10.576329452817262,0.032873477895802763,1.2311519018988264,0.010851647902249404,0.4114008026004813,
73.0,10.706797503604987,0.033608384788858706,1.2736313497124163,0.011090618277665887,0.4254762358570602,
74.0,10.836130615835181,0.034333260616110146,1.31666078853653,0.011326721478464977,0.4397357894282401,
75.0,10.964333704553836,0.03504731939705205,1.3602313317635284,0.011559727047724866,0.45417675113541256,
76.0,11.091411684806946,0.035749775151179344,1.4043340927857733,0.011789404528523739,0.4687964087999692,
77.0,11.2173694716405,0.03643984189798697,1.4489601849956257,0.01201552346393979,0.4835920502433016,
78.0,11.342211980100487,0.03711673365696988,1.494100721785447,0.012237853397051208,0.49856096328680133,
79.0,11.465944125232905,0.03777966444762301,1.539746816547599,0.01245616387093619,0.5137004357518602,
80.0,11.588570822083739,0.03842784828944129,1.5858895826744424,0.01267022442867292,0.5290077554598696,
81.0,11.710096985698986,0.03906049920191968,1.6325201335583386,0.012879804613339593,0.544480210232221,
82.0,11.83052753112463,0.039676831204553134,1.679629582591649,0.0130846739680144,0.5601150878903063,
83.0,11.949867373406667,0.04027605831683656,1.7272090431667357,0.013284602035775533,0.5759096762555171,
84.0,12.068121427591093,0.040857394558264926,1.775249628675959,0.013479358359701179,0.5918612631492448,
85.0,12.185294608723888,0.04142005394833317,1.8237424525116808,0.013668712482869534,0.6079671363928811,
86.0,12.301391831851058,0.04196325050653622,1.8726786280662626,0.013852433948358788,0.6242245838078178,
87.0,12.416418012018584,0.042486412391371166,1.922048486733375,0.014030351527043017,0.6406305769479642,
88.0,12.530378064272455,0.04298990160833399,1.9718389496585687,0.014202552278566155,0.6571807081442224,
89.0,12.643276903658672,0.043474334659716465,2.0220360086090037,0.014369193652758525,0.6738701938545332,
90.0,12.755119445223224,0.043940328053384645,2.0726256553314846,0.01453043310099222,0.6906942505286041,
91.0,12.865910604012099,0.04438849829720463,2.1235938815728144,0.014686428074639346,0.7076480946161439,
92.0,12.975655295071286,0.04481946189904246,2.1749266790797983,0.014837336025072007,0.7247269425668601,
93.0,13.084358433446786,0.04523383536676426,2.22661003959924,0.014983314403662294,0.741926010830461,
94.0,13.192024934184579,0.045632235208236054,2.2786299548779425,0.015124520661782307,0.7592405158566543,
95.0,13.298659712330666,0.04601527793132396,2.3309724166627115,0.015261112250804154,0.7766656740951486,
96.0,13.404267682931028,0.04638358004389405,2.38362341670035,0.015393246622099925,0.7941967019956513,
97.0,13.508853761031675,0.046737758053812396,2.436568946737663,0.015521081227041733,0.8118288160078709,
98.0,13.612422861678578,0.047078428468945055,2.489794998521454,0.01564477351700166,0.8295572325815155,
99.0,13.714979899917736,0.04740620779715815,2.543287563798526,0.01576448094335182,0.8473771681662926,
100.0,13.816529790795142,0.04772171254631772,2.597032634315685,0.015880360957464312,0.8652838392119109,
101.0,13.917077449356793,0.04802555922428986,2.6510162018197336,0.015992571010711228,0.8832724621680776,
102.0,14.016627790648668,0.04831836433894063,2.705224258057477,0.01610126855446467,0.9013382534845016,
103.0,14.115185729716764,0.04860074439813612,2.759642794775717,0.016206611040096745,0.9194764296108904,
104.0,14.212756181607077,0.048873315909742414,2.814257803721261,0.016308755918979543,0.9376822069969522,
105.0,14.309344061365595,0.049136695381625586,2.8690552766409105,0.016407860642485166,0.9559508020923948,
106.0,14.404954284038306,0.0493914993216517,2.9240212052814702,0.01650408266198572,0.9742774313469268,
107.0,14.499591764671207,0.04963834423768683,2.9791415813897446,0.0165975794288533,0.9926573112102558,
108.0,14.593261418310277,0.04987784663759707,3.034402396712537,0.016688508394460008,1.01108565813209,
109.0,14.685968160001531,0.05011062302924851,3.0897896429966525,0.016777027010177942,1.0295576885621374,
110.0,14.777716904790937,0.050337289920507206,3.1452893119888947,0.016863292727379204,1.0480686189501056,
111.0,14.868512567724503,0.05055846381923922,3.200887395436067,0.016947462997435884,1.0666136657457033,
112.0,14.958360063848207,0.05077476123331068,3.256569885084975,0.017029695271720102,1.0851880453986387,
113.0,15.047264308208053,0.05098679867058762,3.3123227726824203,0.01711014700160394,1.1037869743586186,
114.0,15.135230215850024,0.05119519263893612,3.3681320499752094,0.017188975638459506,1.1224056690753526,
115.0,15.222262701820112,0.05140055964622228,3.423983708710144,0.017266338633658892,1.1410393459985473,
116.0,15.30836668116431,0.051603516200312144,3.479863740634031,0.017342393438574206,1.159683221577912,
117.0,15.39354706892861,0.05180467880907182,3.5357581374936724,0.017417297504577548,1.178332512263154,
118.0,15.477808780159009,0.052004663980367384,3.591652891035873,0.017491208283041012,1.1969824345039812,
119.0,15.561156729901484,0.05220408822206489,3.6475339930074364,0.017564283225336704,1.215628204750102,
120.0,15.64359583320204,0.05240356804203043,3.703387435155167,0.017636679782836714,1.2342650394512245,
121.0,15.725131005106666,0.052603719948130095,3.7591992092258693,0.01770855540691316,1.252888155057057,
122.0,15.805767160661345,0.05280516044822996,3.8149553069663464,0.01778006754893812,1.2714927680173065,
123.0,15.88550921491208,0.053008506050196066,3.870641720123402,0.017851373660283706,1.2900740947816818,
124.0,15.964362082904849,0.0532143732618945,3.926244440443841,0.017922631192322017,1.3086273517998908,
125.0,16.042330679685655,0.05342337859119138,3.981749459674469,0.017993997596425157,1.3271477555216415,
126.0,16.11941992030049,0.05363613854595276,4.037142769562087,0.018065630323965215,1.3456305223966423,
127.0,16.19563471979533,0.0538532696340447,4.092410361853501,0.018137686826314295,1.3640708688746004,
128.0,16.270979993216187,0.0540753883633333,4.147538228295515,0.018210324554844504,1.3824640114052247,
129.0,16.345460655609042,0.05430311124168463,4.202512360634931,0.01828370096092793,1.4008051664382228,
130.0,16.419081622019885,0.05453705477696477,4.2573187506185555,0.01835797349593668,1.4190895504233025,
131.0,16.491847807494707,0.05477783547703978,4.311943389993192,0.018433299611242855,1.4373123798101726,
132.0,16.56376412707951,0.05502598918071578,4.366374379837184,0.018509818735580098,1.4554695850359007,
133.0,16.634835495820273,0.055281379735069434,4.420617392443291,0.01858752016497955,1.473563044215647,
134.0,16.70506682876299,0.05554353735098764,4.474686824010789,0.01866631865630674,1.4915975884185617,
135.0,16.77446304095366,0.05581198983056597,4.528597133723937,0.01874612842826823,1.5095780700335726,
136.0,16.843029047438264,0.05608626497589997,4.582362780766993,0.01882686369957061,1.5275093414496064,
137.0,16.910769763262802,0.05636589058908524,4.635998224324222,0.018908438688920455,1.5453962550555922,
138.0,16.977690103473257,0.05665039447221732,4.6895179235798805,0.018990767615024346,1.5632436632404574,
139.0,17.043794983115635,0.056939304427391785,4.74293633771823,0.01907376469658886,1.5810564183931304,
140.0,17.109089317235906,0.0572321482567042,4.79626792592353,0.019157344152320583,1.5988393729025394,
141.0,17.17357802088008,0.05752845376225015,4.849527147380041,0.01924142020092609,1.616597379157612,
142.0,17.23726600909414,0.05782774874612518,4.902728461272022,0.019325907061111966,1.6343352895472762,
143.0,17.30015819692408,0.05812956101042488,4.955886326783736,0.019410718951584787,1.6520579564604598,
144.0,17.362259499415885,0.0584334183572448,5.009015203099439,0.019495770091051134,1.6697702322860917,
145.0,17.423574831615557,0.05873884858868051,5.062129549403394,0.019580974698217585,1.6874769694130989,
146.0,17.484109108569083,0.0590453795068276,5.115243824879863,0.019666246991790724,1.7051830202304104,
147.0,17.543867245322453,0.0593525389137816,5.168372488713101,0.019751501190477125,1.7228932371269525,
148.0,17.602854156921662,0.05965985461163809,5.221530000087371,0.019836651512983375,1.7406124724916552,
149.0,17.661074758412692,0.05996685440249266,5.274730818186931,0.019921612178016048,1.7583455787134454,
150.0,17.71853396484154,0.06027306608844088,5.327989402196046,0.02000629740428173,1.7760974081812515,
151.0,17.775236691254204,0.060578017471578274,5.381320211298969,0.02009062141048699,1.7938728132840005,
152.0,17.831187852696665,0.06088123635400045,5.434737704679966,0.020174498415338426,1.811676646410622,
153.0,17.886392364214927,0.061182250537802955,5.488256341523295,0.020257842637542593,1.8295137599500426,
154.0,17.94085514085497,0.06148058782508136,5.541890581013215,0.020340568295806095,1.8473890062911913,
155.0,17.994581097662792,0.061775776017931244,5.595654882333989,0.0204225896088355,1.8653072378229953,
156.0,18.047575149684373,0.06206734291844817,5.649563704669875,0.02050382079533739,1.8832733069343834,
157.0,18.099842211965715,0.0623548163287277,5.703631507205132,0.02058417607401834,1.901292066014283,
158.0,18.151387199552815,0.0626377240508654,5.757872749124022,0.020663569663584937,1.9193683674516224,
159.0,18.202215027491654,0.06291559388695687,5.812301889610805,0.020741915782743762,1.9375070636353293,
160.0,18.252330610828224,0.06318795363909763,5.866933387849741,0.020819128650201385,1.955713006954332,
161.0,18.301738864608524,0.06345433110938327,5.921781703025089,0.0208951224846644,1.9739910497975584,
162.0,18.350444703878534,0.06371425409990937,5.976861294321111,0.020969811504839377,1.9923460445539367,
163.0,18.398453043684253,0.06396725041277147,6.032186620922065,0.021043109929432896,2.0107828436123945,
164.0,18.445768799071676,0.06421284785006515,6.087772142012212,0.021114931977151537,2.0293062993618594,
165.0,18.49239688508678,0.06445057421388599,6.143632316775814,0.021185191866701886,2.047921264191261,
166.0,18.538342216775575,0.06467995730632954,6.199781604397127,0.02125380381679052,2.0666325904895255,
167.0,18.583609709184035,0.06490052492949139,6.256234464060414,0.02132068204612401,2.085445130645582,
168.0,18.62820427735817,0.06511180488546707,6.313005354949933,0.021385740773408945,2.1043637370483577,
169.0,18.672130836343953,0.0653133249763522,6.370108736249948,0.021448894217351917,2.1233932620867817,
170.0,18.715394301187388,0.06550461300424229,6.427559067144717,0.02151005659665948,2.1425385581497807,
171.0,18.757999586934464,0.06568519677123297,6.485370806818499,0.02156914213003823,2.1618044776262844,
172.0,18.799951608631165,0.06585460407941975,6.543558414455552,0.021626065036194738,2.181195872905219,
173.0,18.84125528132349,0.06601236273089824,6.602136349240143,0.021680739533835598,2.200717596375514,
174.0,18.881915520057433,0.06615800052776398,6.661119070356526,0.021733079841667374,2.2203745004260957,
175.0,18.92193723987897,0.0662910663987523,6.720520394848106,0.021783003420760273,2.2401712223668526,
176.0,18.961325355834116,0.06641153197884009,6.78034129166925,0.02183049260607596,2.2601080961610927,
177.0,19.000084782968848,0.0665197592180047,6.840570866211914,0.02187558963529463,2.280181482183477,
178.0,19.038220436329155,0.06661612470170498,6.9011977790249235,0.021918338992244116,2.300387591812643,
179.0,19.075737230961032,0.06670100501539973,6.962210690657104,0.021958785160752253,2.3207226364272295,
180.0,19.112640081910474,0.06677477674454779,7.02359826165728,0.021996972624646886,2.341182827405875,
181.0,19.148933904223462,0.06683781647460796,7.0853491525742704,0.02203294586775584,2.3617643761272142,
182.0,19.184623612946,0.06689050079103907,7.147452023956907,0.022066749373906975,2.3824634939698885,
183.0,19.21971412312408,0.06693320627929998,7.209895536354012,0.022098427626928107,2.403276392312536,
184.0,19.25421034980368,0.06696630952484944,7.27266835031441,0.022128025110647077,2.4241992825337926,
185.0,19.2881172080308,0.0669901871131463,7.3357591263869235,0.02215558630889174,2.4452283760122975,
186.0,19.32143961285143,0.0670052156296494,7.399156525120378,0.022181155705489914,2.4663598841266885,
187.0,19.354182479311568,0.06701177165981755,7.4628492070636,0.02220477778426944,2.487590018255603,
188.0,19.3863507224572,0.06701023178910956,7.526825832765411,0.02222649702905817,2.5089149897776797,
